### distance # intensity
###    cm    #    mV

      148          5.8
      138          7.2
      128          8.5
      118         10.4
      109         12.9
      100         15.2
       91         19.6
       82         24.8
       73         27.6
       65         37.6
       57         47.2
       50         67
       43         91
       36        120
       29        194
       24        294
       20        440
       17        608
       15        760
       13        910
       11       1020
       10       1110
        9       1120
